0
0
0
0
0
0
0
0
1
2
4
5
7
8
10
12
12
12
13
18
30
55
89
123
149
164
170
171
171
172
174
176
179
182
185
188
191
194
195
196
196
195
194
193
192
190
189
187
187
187
186
181
169
144
111
77
50
35
29
28
28
28
26
23
21
18
14
11
8
6
4
3
2
1
1
1
1
1
0
0
0
0
0
0
0
0
0
0
0
0
0
0
0
1
1
1
2
2
2
2
3
3
3
3
3
3
3
3
3
4
4
4
5
6
7
9
12
18
27
41
60
85
113
143
170
193
208
213
213
222
272
396
632
990
1447
1951
2408
2733
2895
2929
2931
3003
3198
3504
3848
4166
4418
4591
4697
4754 //This value (*)
4779
4783
4772
4750
4722
4692
4665
4644
4633
4635
4644
4643
4601
4483
4251
3896
3441
2938
2481
2156
1995
1961
1959
1887
1692
1386
1043
727
475
300
192
129
95
77
69
66
66
66
65
63
59
52
43
34
26
20
16
13
11
10
9
9
9
9
9
10
10
10
8
7
6
6
5
5
5
5
6
6
6
7
7
7
7
7
7
7
7
7
7
7
7
7
7
7
7
6
6
6
5
5
4
4
3
3
2
2
2
2
2
3
3
3
3
4
4
4
4
4
4
4
4
4
4
4
4
4
4
4
5
5
6
7
8
9
11
16
23
34
50
71
96
123
151
175
194
203
204
206
236
327
517
830
1250
1731
2196
2567
2787
2866
2870
2891
3003
3222
3510
3809
4061
4250
4380
4460
4503
4522
4522
4508
4485
4457
4429
4408
4395
4395
4404
4411
4390
4305
4120
3810
3392
2913
2448
2077
1857
1779
1775
1754
1641
1421
1133
833
580
390
258
174
125
95
79
72
70
70
70
67
61
52
42
32
23
17
13
10
9
8
7
7
7
7
7
7
7
7
7
7
7
6
6
5
5
4
4
4
4
4
4
4
4
4
4
4
3
3
3
2
2
2
2
1
1
1
1
1
1
1
1
1
1
1
1
1
1
2
2
2
2
2
2
2
2
2
3
3
4
4
5
5
5
5
5
5
6
7
9
10
12
14
16
18
22
28
38
52
71
94
120
146
171
190
201
204
205
225
300
466
747
1138
1603
2075
2474
2739
2851
2867
2875
2958
3156
3449
3779
4083
4329
4507
4627
4699
4736
4747
4737
4715
4689
4666
4650
4643
4646
4660
4673
4663
4596
4436
4157
3767
3303
2831
2432
2168
2055
2039
2031
1946
1747
1453
1121
815
568
387
263
185
138
113
104
103
103
99
91
79
64
47
34
22
14
8
5
3
2
2
2
2
2
2
3
3
3
3
3
3
3
3
3
3
3
3
3
3
3
3
3
3
3
3
3
3
3
3
3
3
3
2
2
2
2
1
1
1
1
1
1
1
1
1
1
0
0
0
0
0
0
1
1
1
2
2
3
3
3
4
4
4
4
4
4
4
4
5
5
6
7
8
10
12
17
24
35
50
71
96
124
154
182
204
218
220
220
241
318
489
789
1210
1713
2225
2661
2949
3077
3096
3105
3202
3438
3782
4159
4502
4765
4938
5039
5087
5102
5097
5079
5055
5027
4997
4972
4954
4946
4950
4957
4943
4871
4705
4408
3989
3486
2975
2540
2253
2125
2105
2096
1998
1762
1417
1039
695
430
254
149
94
68
58
55
55
55
54
52
47
41
34
26
19
13
9
6
4
3
3
2
2
2
2
2
2
2
3
3
3
3
3
3
3
3
3
3
3
3
3
3
3
3
2
2
2
2
2
2
2
2
1
1
1
1
1
1
1
1
0
0
0
0
0
0
0
0
0
0
0
0
1
1
1
2
2
3
3
3
3
3
3
3
3
3
3
4
4
5
5
6
8
10
14
20
30
44
63
88
116
146
176
202
220
226
226
234
281
405
636
980
1415
1880
2316
2634
2810
2860
2860
2898
3038
3279
3579
3878
4135
4328
4456
4534
4574
4587
4580
4560
4532
4502
4474
4453
4444
4448
4460
4462
4423
4306
4079
3737
3304
2840
2406
2088
1912
1862
1862
1824
1684
1442
1141
841
582
387
255
171
121
95
82
78
77
77
75
70
61
49
38
27
18
12
7
4
2
1
0
0
0
0
0
0
0
0
1
1
1
1
1
1
1
1
1
1
1
2
2
2
2
2
2
2
2
2
2
2
2
2
2
2
2
2
2
2
1
1
1
1
1
1
1
1
1
1
1
1
1
1
2
2
2
2
3
3
3
3
4
4
4
4
4
4
4
4
4
4
5
5
6
7
9
13
19
28
42
61
84
110
136
160
179
190
192
193
212
281
434
698
1083
1548
2020
2426
2691
2807
2822
2832
2927
3142
3447
3785
4084
4314
4470
4564
4616
4637
4637
4622
4600
4573
4548
4526
4512
4507
4514
4522
4512
4450
4302
4041
3658
3194
2723
2317
2053
1937
1922
1912
1817
1602
1295
958
657
426
269
171
113
83
70
65
65
65
64
61
56
49
40
31
22
15
10
7
5
3
2
2
2
2
2
2
2
2
3
3
2
2
2
2
2
2
2
2
2
2
2
2
2
2
2
2
2
2
2
2
1
1
1
1
1
1
1
1
1
1
1
1
1
1
1
1
1
1
1
1
2
2
2
2
3
3
4
4
5
5
5
6
6
6
6
6
6
6
6
7
8
9
10
11
12
14
17
22
30
42
58
79
102
126
148
166
176
178
178
189
241
365
590
928
1349
1799
2191
2461
2585
2606
2610
2684
2874
3155
3466
3747
3961
4103
4184
4227
4244
4243
4231
4211
4189
4164
4142
4125
4119
4123
4130
4127
4082
3964
3743
3408
2990
2541
2150
1880
1757
1736
1731
1656
1466
1184
872
590
374
230
146
98
74
63
59
57
57
57
57
55
51
45
37
28
20
14
10
7
5
4
3
3
3
4
4
5
5
6
6
6
6
6
5
5
5
5
5
5
5
6
6
6
6
7
7
7
7
7
7
7
7
7
7
6
6
6
5
5
4
4
3
3
3
3
3
3
3
3
3
3
3
3
4
4
4
5
5
5
5
5
5
4
4
4
4
5
5
5
6
6
7
7
8
10
14
20
29
43
61
84
110
140
169
195
211
216
216
228
288
432
691
1062
1520
1993
2406
2700
2844
2878
2878
2930
3088
3340
3640
3933
4185
4373
4502
4580
4624
4638
4632
4613
4586
4558
4532
4515
4510
4517
4531
4530
4478
4341
4087
3718
3262
2790
2377
2083
1939
1905
1904
1851
1694
1441
1141
847
594
404
272
188
135
107
95
92
92
90
86
77
66
52
38
27
18
11
6
4
2
2
1
1
1
2
2
2
2
2
2
2
2
2
2
2
2
2
2
2
2
2
2
2
2
2
2
2
2
2
2
2
2
2
2
2
2
2
2
2
2
1
1
1
1
1
1
1
1
1
1
2
2
3
4
4
4
4
4
4
4
4
5
5
5
4
4
4
4
4
4
5
6
7
8
10
13
17
22
31
45
62
85
109
134
158
177
188
190
191
212
284
446
722
1114
1579
2060
2459
2717
2826
2837
2852
2965
3206
3537
3887
4192
4421
4567
4651
4691
4703
4697
4681
4659
4634
4609
4588
4575
4572
4580
4588
4577
4514
4360
4089
3700
3237
2758
2359
2100
1992
1980
1965
1853
1611
1280
929
623
393
244
157
112
91
83
81
81
81
80
76
70
62
52
42
32
23
16
11
7
5
4
4
4
5
5
5
5
5
5
5
4
4
4
4
3
3
4
4
4
4
4
4
4
4
4
4
4
4
4
3
3
3
3
3
3
2
2
2
2
1
1
1
1
1
1
1
1
1
1
0
0
0
1
1
1
1
2
2
3
3
3
3
3
3
3
3
4
4
4
5
5
6
8
10
14
19
27
39
54
73
96
120
145
166
179
183
183
194
246
378
614
965
1400
1865
2278
2572
2717
2748
2749
2809
2976
3234
3534
3821
4056
4229
4349
4429
4473
4492
4489
4473
4451
4427
4408
4397
4397
4409
4426
4428
4386
4261
4028
3679
3245
2781
2368
2074
1929
1897
1896
1835
1669
1410
1110
822
586
410
286
202
149
119
107
103
103
102
97
87
73
57
40
26
16
9
6
3
2
1
1
1
1
2
2
2
3
3
3
3
3
3
3
3
4
4
4
5
5
5
5
5
5
5
5
5
5
5
5
5
5
5
5
5
4
4
4
4
3
3
2
2
2
2
2
2
1
1
1
1
1
1
1
2
2
2
2
2
2
2
2
2
2
2
3
3
3
3
3
3
3
4
5
7
12
20
32
49
72
98
126
154
178
195
203
203
208
242
340
535
847
1267
1740
2190
2535
2725
2780
2779
2822
2975
3239
3564
3883
4141
4330
4448
4512
4538
4541
4531
4509
4483
4455
4429
4408
4396
4396
4406
4411
4385
4293
4104
3795
3377
2905
2456
2112
1922
1867
1866
1824
1671
1406
1081
762
503
313
193
124
90
75
69
68
68
67
66
62
56
48
38
28
20
14
9
5
3
2
1
1
1
2
2
2
2
3
3
3
3
3
3
3
3
3
3
3
3
3
3
3
3
3
3
3
3
3
3
3
3
3
2
2
2
2
2
1
1
1
1
1
1
1
1
1
1
1
1
1
1
1
1
1
2
2
2
3
3
3
3
3
3
3
3
4
5
5
6
7
8
9
10
12
16
22
32
46
65
88
114
140
163
179
186
186
192
235
350
565
897
1324
1797
2240
2578
2768
2828
2829
2860
2991
3232
3538
3849
4124
4339
4490
4588
4645
4669
4669
4652
4629
4605
4584
4569
4564
4569
4580
4583
4549
4438
4226
3897
3471
2999
2557
2219
2029
1968
1967
1935
1803
1561
1255
943
667
452
299
197
134
100
86
83
83
82
77
69
58
45
34
24
16
11
7
5
4
3
2
2
3
3
3
3
4
4
4
3
3
3
3
3
3
3
3
3
3
3
3
3
3
3
3
3
3
3
3
2
2
2
2
2
2
1
1
1
1
1
1
1
1
1
1
1
1
0
0
0
0
0
1
1
1
1
2
2
3
3
3
3
3
3
3
3
4
4
5
5
6
7
8
11
15
22
33
50
71
97
125
153
180
199
208
208
212
244
341
541
853
1266
1731
2173
2524
2734
2809
2812
2835
2950
3176
3475
3787
4057
4260
4398
4478
4518
4530
4522
4504
4478
4450
4424
4402
4388
4387
4396
4400
4375
4282
4085
3775
3363
2899
2457
2106
1896
1821
1818
1795
1679
1453
1153
841
570
365
225
141
93
70
61
59
59
58
56
52
46
38
29
21
14
9
5
4
2
1
1
1
0
0
0
0
1
1
1
2
3
3
4
4
4
4
4
4
4
4
5
5
5
5
5
5
5
5
5
5
5
6
7
10
16
25
38
56
77
101
127
151
169
180
182
183
203
272
425
683
1048
1490
1939
2324
2583
2695
2712
2720
2804
3004
3292
3611
3899
4119
4262
4343
4383
4395
4389
4373
4353
4328
4302
4279
4263
4257
4261
4267
4253
4189
4039
3782
3419
2977
2527
2143
1884
1772
1755
1747
1663
1463
1175
856
569
349
205
120
75
54
46
44
44
44
44
42
40
35
29
22
17
12
9
7
6
6
5
5
5
5
6
6
6
5
5
5
4
4
4
4
4
4
4
4
4
4
4
4
4
3
3
3
2
2
2
2
2
2
2
1
1
1
1
1
1
1
1
1
1
1
1
1
1
1
1
0
0
0
0
0
0
0
0
0
0
0
0
0
0
0
0
0
0
0
0
0
0
0
0
0
0
0
0
0
0
0
0
0
0
0
0
0
0
0
1
1
1
2
3
4
6
9
12
18
28
40
57
76
96
115
130
139
141
142
155
208
332
552
871
1263
1676
2041
2294
2418
2440
2444
2516
2706
2999
3336
3642
3877
4033
4118
4155
4165
4161
4149
4132
4113
4094
4075
4061
4056
4058
4064
4056
4009
3889
3671
3354
2964
2552
2188
1935
1812
1789
1785
1713
1523
1229
891
585
348
191
103
63
46
42
41
41
41
40
40
38
35
30
24
18
13
9
6
4
3
2
1
0
0
0
0
0
0
0
1
1
1
1
1
1
1
1
1
1
1
1
1
1
1
1
1
1
1
1
1
1
1
1
1
1
1
1
1
0
0
0
0
0
0
0
0
0
0
0
0
0
0
0
0
0
0
0
0
0
0
0
0
0
0
0
0
0
0
0
0
0
1
1
1
1
2
2
4
6
11
18
29
44
62
83
106
127
143
152
153
155
173
233
365
591
910
1295
1694
2038
2264
2362
2373
2384
2479
2689
2983
3295
3565
3759
3878
3939
3964
3968
3961
3946
3928
3907
3885
3864
3849
3843
3845
3848
3836
3780
3651
3428
3111
2727
2329
1985
1760
1662
1651
1640
1545
1335
1041
728
458
263
143
80
50
39
35
35
35
35
34
34
32
30
26
21
16
12
9
6
4
3
2
1
1
1
1
1
1
1
1
1
1
1
1
1
1
1
1
1
1
1
1
1
1
1
1
1
1
1
1
1
1
1
1
1
1
1
0
0
0
0
0
0
0
0
0
0
0
0
0
0
0
0
0
0
0
0
0
0
0
0
1
1
1
1
1
1
1
1
1
2
3
4
5
6
7
10
13
18
25
33
42
51
60
67
72
73
73
77
98
158
282
487
769
1094
1413
1655
1787
1819
1821
1905
2181
2684
3340
3979
4450
4708
4794
4802
4801
4820
4856
4893
4925
4950
4969
4986
5000
5011
5018
5017
4997
4937
4813
4608
4326
4001
3682
3440
3308
3276
3274
3189
2913
2409
1752
1113
640
382
294
284
281
257
214
169
128
94
66
42
24
11
4
1
0
0
0
0
0
0
0
0
0
0
0
0
0
0
0
0
0
0
0
0
0
0
0
0
0
0
0
0
0
0
0
0
0
0
0
0
0
0
0
0
0
0
0
0
0
0
0
0
0
0
0
0
0
0
0
0
0
0
0
0
0
0
0
0
0
0
0
0
1
1
1
1
1
1
1
1
1
2
2
2
3
4
5
8
11
18
28
41
59
82
107
131
152
167
173
173
180
218
320
515
815
1200
1620
2012
2306
2468
2515
2515
2553
2693
2935
3241
3540
3793
3977
4094
4159
4192
4199
4193
4177
4154
4130
4108
4092
4084
4087
4096
4098
4067
3970
3779
3482
3098
2678
2287
1993
1831
1784
1784
1746
1605
1363
1057
757
504
319
198
129
91
73
66
64
64
64
61
56
49
40
31
22
15
10
6
4
2
2
1
1
1
1
1
1
1
1
1
1
1
1
1
1
1
2
2
2
2
2
2
2
2
2
2
2
2
2
2
2
2
2
2
2
2
2
2
2
1
1
1
1
1
1
1
1
1
1
0
0
0
1
1
1
1
1
1
1
2
2
2
2
2
2
2
2
2
3
3
4
5
6
8
10
15
21
30
41
56
74
95
116
136
150
158
159
161
184
259
412
664
1015
1436
1863
2221
2458
2559
2570
2581
2675
2885
3184
3509
3790
3998
4128
4198
4230
4239
4236
4224
4206
4185
4164
4145
4132
4127
4130
4134
4118
4049
3901
3653
3305
2886
2460
2103
1866
1765
1754
1742
1648
1438
1138
813
531
321
189
114
76
58
50
48
47
47
47
46
45
42
37
31
24
18
13
8
5
3
2
2
1
1
1
2
2
2
3
3
2
2
2
2
2
2
2
2
2
2
2
2
2
2
2
2
2
2
2
2
2
2
2
2
2
2
2
1
1
1
1
0
0
1
1
1
0
0
0
0
0
0
0
1
1
1
2
2
3
3
3
3
3
3
3
4
4
4
5
5
6
7
8
10
13
18
27
39
56
77
101
128
154
176
193
199
198
206
248
364
579
904
1324
1774
2187
2487
2649
2694
2694
2732
2867
3104
3391
3678
3919
4102
4227
4306
4347
4363
4360
4344
4319
4294
4271
4255
4248
4254
4265
4267
4232
4121
3910
3587
3168
2719
2306
2006
1844
1799
1799
1760
1624
1388
1100
812
570
385
257
172
122
94
80
76
76
75
72
65
55
44
32
22
14
9
5
3
1
1
1
1
1
1
2
2
3
3
3
4
4
3
3
3
3
4
4
4
4
4
4
4
5
5
5
5
5
5
4
4
4
4
4
4
4
3
3
2
2
1
1
1
1
1
1
1
1
1
1
0
0
0
0
0
0
0
0
0
1
1
1
1
1
2
2
2
2
2
2
2
3
3
4
5
6
9
13
19
29
43
62
87
115
143
169
190
204
207
207
225
297
463
751
1157
1645
2149
2577
2865
2993
3012
3020
3111
3331
3655
4012
4343
4600
4773
4878
4933
4955
4955
4940
4916
4887
4861
4838
4823
4818
4823
4833
4824
4759
4598
4313
3909
3422
2919
2492
2204
2076
2057
2049
1957
1737
1412
1054
723
464
288
179
119
87
73
69
68
68
67
63
57
49
40
30
21
14
8
5
3
2
1
1
1
1
1
1
1
1
1
1
1
1
1
1
1
1
1
1
2
2
2
2
2
2
2
2
2
2
2
2
2
2
2
2
2
1
1
1
1
1
1
1
0
0
0
0
0
0
0
0
0
0
0
0
0
0
0
0
0
0
0
1
1
1
1
1
1
1
1
2
2
3
4
6
7
10
13
19
29
41
58
79
101
126
149
167
176
177
179
205
290
465
753
1145
1602
2052
2417
2648
2739
2746
2764
2879
3126
3463
3813
4119
4343
4481
4552
4580
4584
4576
4560
4539
4516
4492
4472
4457
4453
4458
4462
4441
4361
4189
3903
3513
3057
2608
2244
2013
1922
1915
1897
1780
1533
1195
844
538
312
171
96
62
49
45
44
44
44
43
41
38
33
27
21
15
10
7
5
3
1
1
0
0
0
0
0
0
0
0
1
1
1
1
1
1
1
1
1
1
1
1
1
1
1
1
1
1
1
1
1
1
1
1
1
1
1
1
0
0
0
0
0
0
0
0
0
0
0
0
0
0
0
0
1
1
1
2
2
3
3
3
3
3
3
3
3
4
4
4
5
6
6
8
10
12
16
21
29
42
58
79
104
132
158
180
194
197
197
210
267
407
660
1031
1489
1969
2397
2697
2846
2878
2878
2936
3106
3382
3706
4017
4274
4462
4586
4659
4696
4708
4702
4683
4658
4631
4610
4595
4591
4599
4610
4606
4556
4421
4171
3802
3346
2866
2439
2139
1991
1959
1958
1900
1729
1453
1128
815
556
366
238
160
115
91
81
78
78
77
73
65
55
44
32
22
14
9
6
4
3
2
2
1
1
2
2
2
3
3
3
3
3
3
3
3
3
3
3
3
3
3
3
3
3
3
3
3
3
3
3
3
3
3
2
2
2
2
2
1
1
1
1
1
1
1
1
1
1
1
0
0
0
0
0
0
0
0
0
0
0
1
1
1
1
1
1
1
1
1
1
2
2
3
4
5
8
13
21
33
49
70
97
127
157
183
204
214
215
218
248
342
542
874
1324
1852
2371
2792
3045
3136
3140
3167
3302
3572
3930
4301
4619
4854
5008
5094
5136
5149
5143
5124
5098
5068
5040
5018
5005
5005
5014
5021
4999
4911
4715
4387
3939
3412
2893
2473
2220
2128
2124
2098
1962
1691
1334
962
644
407
250
159
110
85
75
73
73
72
70
66
58
48
38
28
20
14
10
7
5
5
4
4
4
5
5
6
6
7
7
7
7
7
6
6
6
6
6
7
7
7
7
7
7
7
7
7
7
7
6
6
6
5
5
5
4
4
3
3
2
2
2
2
2
2
2
2
1
1
1
1
1
1
1
1
1
1
1
2
2
2
2
2
2
2
3
3
3
3
4
5
6
8
10
13
18
27
41
60
86
118
152
186
214
234
242
242
249
296
424
671
1049
1537
2073
2562
2919
3105
3152
3152
3215
3410
3728
4098
4442
4710
4889
4991
5041
5056
5052
5035
5009
4977
4943
4911
4886
4871
4870
4877
4877
4837
4714
4470
4095
3608
3073
2585
2228
2043
1995
1995
1931
1736
1418
1046
702
432
251
146
91
67
58
55
55
55
54
53
50
45
38
30
22
15
10
6
4
2
1
1
1
1
1
1
1
1
1
1
1
1
1
1
1
1
1
1
1
2
2
2
1
1
1
1
1
1
1
1
1
1
1
1
1
1
1
1
1
1
1
0
0
0
0
0
0
0
0
0
0
0
0
0
0
0
1
1
1
1
2
2
2
2
2
2
2
2
2
3
3
4
4
6
7
10
16
24
36
54
75
100
124
147
165
174
175
176
195
261
405
658
1016
1443
1879
2236
2462
2550
2557
2573
2678
2893
3174
3462
3709
3888
4006
4078
4118
4137
4138
4125
4105
4081
4057
4037
4024
4023
4031
4039
4027
3967
3827
3577
3221
2794
2360
2003
1777
1689
1682
1666
1561
1345
1063
775
528
348
228
153
108
81
68
63
61
61
61
58
52
45
36
27
19
13
9
6
4
3
3
2
2
2
2
3
3
3
3
3
3
3
2
2
2
2
2
2
2
2
2
2
2
2
2
2
2
2
2
1
1
1
1
1
1
1
1
0
0
0
0
0
0
0
0
0
0
0
0
0
0
0
0
1
1
1
1
2
2
2
2
2
2
2
2
3
3
4
5
6
7
8
10
12
15
20
28
39
56
77
101
129
155
176
188
190
190
210
278
431
695
1066
1516
1981
2388
2658
2782
2801
2808
2895
3104
3415
3765
4089
4347
4525
4634
4692
4716
4719
4706
4685
4661
4635
4615
4603
4603
4612
4621
4611
4548
4399
4138
3769
3320
2855
2450
2180
2056
2036
2029
1941
1731
1419
1068
743
484
304
191
128
96
83
79
79
79
76
70
61
50
38
28
20
14
9
6
4
3
3
3
3
3
3
4
4
4
4
4
4
4
4
4
4
3
3
3
3
3
3
4
4
4
4
4
4
4
3
3
3
3
3
2
2
2
2
2
1
1
1
1
1
1
1
1
2
2
2
2
2
2
2
3
3
3
3
3
3
4
4
4
4
4
4
4
4
5
5
6
7
8
9
11
13
17
23
32
45
61
80
103
126
145
158
163
163
170
210
315
515
815
1200
1620
2012
2306
2468
2515
2515
2551
2682
2918
3205
3486
3716
3876
3975
4026
4048
4053
4045
4031
4012
3989
3967
3949
3937
3936
3941
3940
3905
3804
3607
3309
2926
2506
2115
1821
1660
1612
1612
1576
1444
1208
920
638
407
245
144
89
61
48
43
41
40
40
40
38
36
32
27
21
16
12
9
8
6
6
5
5
5
6
6
6
7
7
7
6
6
6
6
5
5
5
5
5
5
5
5
6
5
5
5
5
5
4
4
4
4
3
3
3
3
2
2
1
1
1
1
1
1
1
1
1
1
1
1
1
1
1
2
2
2
2
3
3
3
3
3
3
3
3
3
3
4
4
5
5
6
7
8
10
12
17
24
35
50
69
92
116
141
163
179
186
186
192
230
335
535
841
1225
1639
2010
2280
2420
2458
2458
2492
2600
2784
3004
3219
3398
3537
3632
3691
3725
3738
3735
3721
3699
3675
3651
3630
3618
3617
3624
3625
3593
3493
3296
2993
2610
2198
1828
1558
1417
1379
1379
1345
1236
1051
831
615
435
295
197
134
93
69
57
52
51
51
51
49
44
38
31
24
18
14
10
8
7
7
7
10
13
18
24
30
35
39
41
42
41
41
42
44
46
49
52
54
57
59
60
61
61
62
62
62
61
61
60
59
59
58
56
54
51
48
46
47
53
64
82
104
129
153
173
185
188
185
191
233
347
560
884
1289
1731
2130
2418
2562
2598
2599
2646
2791
3027
3303
3568
3783
3935
4031
4083
4106
4108
4098
4080
4058
4033
4010
3992
3983
3984
3990
3987
3946
3833
3620
3296
2891
2449
2050
1762
1618
1582
1581
1534
1390
1153
877
613
398
245
147
92
62
49
43
42
42
41
40
37
32
26
20
15
10
8
6
4
4
3
3
4
4
4
4
5
5
5
4
4
4
4
4
4
4
4
4
4
4
4
5
5
5
4
4
4
4
3
3
3
3
3
2
2
2
2
1
1
1
1
1
1
1
1
1
0
0
0
0
0
0
0
0
0
0
0
0
0
0
0
0
0
0
0
0
0
0
0
0
0
0
0
0
0
0
0
0
0
0
0
0
0
0
1
1
1
2
3
3
5
7
10
16
27
40
58
79
102
126
149
165
173
174
178
214
320
520
826
1225
1667
2081
2399
2585
2648
2650
2673
2782
2996
3278
3565
3812
3996
4118
4189
4224
4235
4231
4218
4199
4177
4153
4130
4115
4110
4115
4117
4089
3991
3796
3494
3098
2657
2245
1928
1743
1680
1678
1655
1546
1331
1049
761
514
328
205
130
89
68
58
53
51
50
50
50
49
46
41
34
26
19
14
10
7
6
4
3
2
2
2
2
2
2
2
2
2
2
2
2
2
2
2
2
2
2
2
2
2
2
2
2
2
1
1
1
1
1
1
2
2
3
4
4
5
5
5
5
8
16
31
52
76
99
119
132
139
142
143
143
147
158
181
217
267
324
385
445
498
540
566
576
576
581
613
687
802
934
1054
1132
1166
1166
1151
1134
1121
1112
1103
1099
1098
1099
1102
1104
1101
1090
1068
1032
982
924
863
803
750
708
681
671
671
665
633
558
441
309
189
111
75
67
67
63
51
37
26
17
11
7
3
1
0
0
0
0
0
0
0
0
0
0
0
0
0
1
2
4
5
7
9
11
13
15
15
15
16
21
31
47
69
91
112
129
140
146
149
149
150
153
165
184
211
239
265
287
302
310
314
314
312
313
320
337
365
400
431
452
460
458
448
432
414
395
377
364
355
351
351
353
354
352
341
321
295
267
241
219
204
196
191
190
190
188
179
159
129
93
61
40
31
29
29
28
25
21
18
15
12
10
7
5
3
2
2
2
2
2
1
1
0
0
0
0
1
1
3
4
5
7
8
10
11
11
11
12
16
25
40
59
80
100
115
126
132
134
134
135
141
153
173
197
223
248
267
282
293
298
299
298
298
306
324
351
381
407
424
429
426
417
403
386
367
349
335
325
320
319
321
322
319
308
288
264
238
213
194
179
168
162
160
160
158
149
129
101
69
43
26
20
19
19
18
16
14
13
12
10
9
8
6
4
2
1
0
0
0
0
0
0
0
0
0
0
1
2
4
5
7
8
10
11
12
12
13
15
23
37
56
79
100
117
128
134
136
136
137
142
153
173
197
222
243
259
269
274
275
274
272
273
279
293
314
339
362
377
383
381
373
361
345
325
307
292
282
276
276
277
278
274
265
247
223
199
177
161
152
147
146
147
147
144
137
122
99
73
49
33
27
27
27
25
22
19
16
14
13
13
12
11
9
7
5
4
3
3
3
3
2
2
1
1
2
3
4
6
9
12
15
18
20
21
21
22
27
42
68
105
145
186
222
248
263
268
268
270
282
308
349
399
449
489
519
535
541
542
540
539
542
553
574
603
635
660
674
676
671
657
636
607
573
536
503
478
463
458
458
456
445
419
378
328
278
238
208
191
184
182
182
181
176
162
137
105
71
45
31
28
28
27
21
14
8
5
2
1
0
0
0
0
0
0
0
0
0
0
0
0
0
0
0
1
2
4
6
8
10
12
14
15
16
16
17
23
38
66
107
154
202
240
267
280
284
284
287
300
328
373
436
511
589
661
718
756
774
777
775
781
809
868
953
1046
1127
1180
1200
1197
1182
1160
1132
1101
1070
1045
1028
1019
1018
1019
1015
1003
976
932
870
797
720
648
590
552
533
528
528
520
490
430
342
247
166
114
93
89
89
83
71
54
38
24
15
10
7
7
7
7
6
5
3
2
0
0
0
0
0
0
1
1
3
5
8
12
15
20
24
26
27
27
28
33
47
72
106
142
176
202
220
230
234
235
235
239
251
274
306
340
370
394
410
420
423
424
421
418
416
422
439
467
498
522
533
530
516
494
465
435
406
382
366
356
353
353
353
349
336
314
282
248
218
193
177
167
161
159
158
158
156
145
124
94
62
38
27
24
24
21
16
10
6
3
1
1
0
0
0
0
0
0
0
0
0
0
0
0
0
0
0
0
1
2
4
7
11
18
25
31
35
37
37
38
44
59
86
120
156
188
211
224
231
232
232
233
238
252
276
315
367
433
505
568
612
634
636
635
655
715
817
942
1062
1155
1207
1224
1219
1206
1190
1172
1156
1140
1130
1124
1123
1124
1126
1125
1120
1106
1082
1044
991
925
853
790
745
722
718
716
692
625
517
385
261
166
114
96
94
92
82
66
46
30
17
9
5
2
1
0
0
0
0
0
0
0
0
0
0
0
0
0
1
2
4
7
10
14
18
22
25
25
25
28
38
61
95
135
176
210
234
248
253
254
254
258
269
294
332
382
440
503
563
615
655
678
684
682
688
722
793
894
1004
1098
1158
1184
1181
1158
1126
1091
1057
1031
1015
1009
1011
1017
1024
1025
1018
995
957
907
850
787
726
674
634
610
602
602
593
555
480
375
262
168
107
79
72
72
70
65
58
50
42
34
27
20
13
8
4
2
2
1
1
1
1
0
0
0
0
0
1
1
2
4
6
8
11
14
17
19
19
19
21
29
47
77
117
160
198
225
240
246
246
247
253
269
299
342
395
453
510
562
607
636
650
651
651
665
707
779
868
950
1013
1045
1054
1047
1029
1002
965
927
892
868
855
850
852
854
851
837
810
768
716
659
601
548
503
473
458
456
454
438
393
318
227
142
79
47
37
36
35
33
29
25
21
19
17
15
13
11
8
5
2
1
0
0
0
0
0
0
0
0
1
1
2
4
7
9
12
14
17
19
20
20
20
25
37
60
92
126
158
183
199
207
209
209
211
219
235
263
302
347
394
439
477
506
521
524
521
528
557
615
691
770
830
862
872
867
856
840
818
794
770
751
737
731
730
731
730
722
705
677
639
594
546
501
463
433
416
412
412
403
371
310
232
151
90
58
48
48
46
40
30
20
12
7
4
2
1
0
0
0
0
0
0
0
0
0
0
0
0
0
0
0
1
2
4
6
8
12
15
17
18
18
19
22
32
52
82
118
154
184
205
216
221
221
221
224
235
254
286
331
386
447
507
556
590
604
604
604
618
657
723
802
873
920
941
943
932
917
897
873
848
824
806
795
791
790
790
787
777
758
726
681
626
565
505
455
421
406
404
403
386
343
274
193
121
74
52
48
48
44
34
22
10
4
2
1
1
1
1
1
1
0
0
0
0
0
0
0
0
1
1
2
3
4
6
9
11
14
17
19
21
21
21
23
32
52
86
131
178
224
258
277
286
288
288
292
305
334
381
444
522
603
681
743
781
793
791
794
822
887
986
1100
1200
1266
1296
1301
1292
1276
1252
1221
1187
1153
1126
1111
1105
1105
1105
1102
1088
1060
1013
949
871
790
712
649
610
597
596
591
561
492
390
274
172
106
76
69
69
65
55
42
28
17
10
5
3
1
0
0
0
0
0
0
0
0
0
0
0
1
2
3
5
8
12
16
22
28
34
39
43
44
44
46
54
73
109
159
217
275
322
356
374
380
381
382
391
416
458
521
602
693
787
867
925
954
959
955
967
1019
1118
1249
1385
1496
1562
1585
1580
1562
1535
1501
1464
1426
1392
1367
1355
1352
1353
1352
1344
1319
1276
1213
1132
1041
947
865
805
773
765
764
746
689
583
447
307
195
128
104
101
100
91
74
53
34
20
11
6
3
1
0
0
0
0
0
0
0
0
0
0
0
0
0
1
2
4
7
12
17
23
30
37
43
46
46
46
52
68
100
145
198
250
298
334
357
368
371
371
375
392
424
469
521
571
612
641
660
670
671
667
663
669
690
728
778
822
853
867
864
848
818
777
731
684
643
613
595
589
591
594
591
574
542
497
446
396
356
327
306
294
290
290
288
276
248
203
148
101
69
55
52
52
50
46
40
33
27
21
16
11
6
4
2
2
2
2
1
0
0
0
0
0
0
1
2
4
7
10
13
17
20
24
26
27
27
28
35
53
87
135
187
237
278
304
316
318
318
322
334
361
403
459
522
585
645
694
731
749
751
748
756
791
853
938
1023
1088
1126
1139
1134
1116
1083
1039
990
943
905
881
872
871
874
874
866
844
804
750
686
623
563
513
475
456
451
451
440
402
336
248
160
94
56
42
40
40
38
35
31
28
26
24
22
20
17
13
8
5
2
1
1
1
1
0
0
0
0
0
1
2
4
6
8
11
15
19
21
22
22
25
34
55
87
125
163
193
215
226
230
230
230
235
247
270
300
339
379
422
462
498
525
540
543
541
548
577
636
717
799
859
891
897
889
869
843
814
785
762
745
737
735
736
737
732
720
697
667
629
588
546
505
469
441
424
420
420
411
379
316
231
147
86
54
45
45
43
37
28
19
12
7
4
2
1
0
0
0
0
0
0
0
0
0
0
0
0
0
0
0
1
1
3
5
9
12
16
20
22
23
23
26
37
60
94
133
169
201
222
234
239
239
240
243
255
277
314
359
411
469
524
574
614
637
644
641
646
674
734
821
913
988
1030
1042
1033
1010
982
951
924
899
883
873
869
869
869
865
854
831
795
750
697
640
585
535
494
470
462
462
454
422
358
267
173
98
55
40
38
38
33
25
15
8
4
1
0
0
0
0
0
0
0
0
0
0
0
0
0
0
0
0
0
0
0
2
3
6
9
13
16
19
20
20
21
25
38
59
89
123
155
181
199
208
211
211
212
220
237
265
303
348
396
441
484
520
544
554
553
553
571
620
701
796
880
935
957
956
944
927
906
883
861
843
830
824
824
825
824
816
800
771
733
688
641
596
553
517
492
481
480
477
456
404
319
221
137
82
59
55
55
50
41
30
20
12
7
4
2
0
0
0
0
0
0
0
0
0
0
0
0
0
0
0
1
1
2
3
5
7
9
11
12
13
13
13
15
21
35
56
82
111
135
155
167
174
177
177
177
181
190
208
238
281
333
393
459
519
561
579
580
581
608
675
786
913
1029
1110
1149
1154
1140
1123
1109
1099
1091
1085
1082
1080
1081
1082
1082
1079
1070
1052
1022
979
927
866
800
740
697
677
675
672
644
575
463
335
219
137
97
86
85
82
69
51
35
21
12
7
4
2
1
1
1
1
1
1
1
1
1
1
1
1
1
1
2
3
5
7
9
10
12
13
15
16
16
16
17
22
34
57
87
121
153
179
197
207
211
212
212
218
235
265
308
358
405
446
476
494
501
501
499
506
529
572
629
688
736
762
770
765
754
740
722
702
682
666
656
653
655
658
659
653
637
609
572
529
487
451
420
400
391
390
390
383
359
315
258
199
152
127
118
117
116
108
95
82
69
59
51
44
39
35
33
33
33
31
25
18
12
8
7
7
7
7
7
6
6
6
7
7
8
9
10
12
12
12
12
13
18
28
46
70
100
132
160
185
201
208
210
210
214
229
259
309
378
460
547
628
691
728
737
736
745
786
866
977
1093
1187
1245
1268
1268
1258
1245
1229
1210
1190
1171
1153
1141
1137
1136
1137
1132
1117
1087
1038
969
887
800
718
655
617
606
605
595
553
471
359
243
148
91
66
62
62
57
48
37
26
17
10
5
3
1
1
1
1
1
0
0
0
0
0
0
0
0
0
0
0
0
1
1
2
3
5
7
9
10
11
11
11
13
17
27
42
62
85
108
127
141
149
151
151
155
169
197
242
300
363
426
484
525
544
546
547
565
618
704
807
900
966
1000
1009
1007
1005
1003
1001
993
981
965
950
939
932
931
931
927
913
885
840
783
720
657
599
559
539
536
535
515
460
372
267
173
107
73
64
64
61
53
41
28
18
11
6
4
2
2
1
1
1
1
1
1
1
0
0
0
0
0
0
0
0
1
2
5
8
12
15
17
18
19
19
19
19
21
27
40
59
84
112
138
163
180
191
194
194
197
210
242
292
361
443
524
596
648
675
680
677
684
724
800
900
1001
1082
1130
1149
1151
1145
1135
1121
1103
1082
1063
1045
1033
1029
1029
1032
1030
1016
984
934
866
785
704
632
580
552
544
543
532
489
411
310
208
127
80
60
56
56
54
48
41
34
27
20
14
9
5
3
1
1
1
1
1
0
0
0
0
0
0
0
0
1
2
5
8
12
15
19
22
23
24
24
25
29
42
66
104
152
202
245
277
295
300
300
304
320
354
407
476
551
626
692
744
777
790
788
788
807
859
939
1031
1111
1163
1187
1192
1188
1176
1155
1120
1076
1028
986
955
938
934
935
933
918
885
833
764
689
614
548
495
461
448
446
443
421
365
281
186
105
53
28
23
23
22
19
15
12
10
9
8
7
6
5
3
2
1
1
1
0
0
0
0
0
0
0
0
1
1
2
4
7
10
14
17
21
24
27
28
28
29
36
54
88
135
188
238
278
304
316
317
318
327
351
394
452
518
584
645
692
723
739
741
738
745
775
835
916
994
1055
1088
1098
1097
1091
1081
1057
1019
975
930
893
868
857
856
855
846
822
779
722
656
589
529
481
449
433
429
429
419
385
322
237
156
93
58
48
48
46
39
29
19
11
6
3
1
1
0
0
1
1
1
1
0
0
0
0
1
1
1
1
2
2
3
4
7
12
17
22
25
26
26
26
27
29
36
53
81
121
169
214
252
276
288
290
290
295
312
344
391
452
523
601
679
748
795
814
813
812
837
902
997
1100
1181
1229
1245
1244
1238
1228
1211
1182
1143
1101
1063
1039
1027
1025
1025
1020
1004
972
924
864
792
714
636
567
520
499
497
493
463
394
296
191
110
62
46
45
44
37
25
14
6
3
2
2
2
2
3
3
4
4
4
4
4
3
3
3
3
2
2
3
3
5
6
8
11
14
17
20
25
29
31
31
32
41
67
115
181
249
309
349
370
376
376
379
390
414
457
515
584
659
734
802
857
890
899
898
902
933
1002
1100
1200
1281
1329
1350
1353
1344
1321
1280
1222
1161
1107
1071
1053
1048
1049
1047
1036
1012
969
911
842
767
692
623
568
534
523
523
516
482
410
308
203
119
69
48
44
44
41
34
26
18
12
7
5
3
2
2
1
1
1
1
1
1
1
1
2
2
3
4
6
8
12
16
21
27
34
39
43
45
45
45
48
57
77
108
151
198
245
286
314
329
334
335
335
340
354
378
412
455
504
558
608
651
678
686
682
678
688
724
783
853
919
964
984
981
961
931
894
855
815
781
757
745
741
742
742
737
723
698
664
621
571
516
464
419
389
376
375
373
356
316
252
180
114
69
46
40
40
38
32
24
16
10
5
3
1
0
0
0
0
0
0
0
0
0
0
0
0
0
0
0
0
1
2
4
10
18
29
43
57
68
76
80
80
81
86
101
129
169
222
277
327
365
390
402
405
405
408
418
439
475
527
596
677
762
836
886
905
900
892
911
972
1073
1193
1302
1376
1410
1414
1399
1373
1342
1301
1261
1225
1197
1180
1172
1171
1171
1169
1159
1138
1102
1049
980
899
815
740
687
663
660
656
624
549
436
308
196
121
87
78
78
75
66
54
39
25
15
8
3
1
1
0
0
0
0
0
0
0
0
0
0
0
0
0
0
1
2
5
9
12
17
22
27
32
34
35
35
38
49
72
106
147
187
223
252
271
281
285
285
287
296
317
349
387
430
468
502
525
540
548
547
544
542
550
577
620
673
720
751
762
754
731
699
663
628
598
575
560
554
554
557
558
550
529
497
459
416
378
344
319
303
293
290
290
288
274
242
194
139
92
60
46
43
43
41
37
31
25
19
15
11
7
4
2
1
1
1
1
1
1
0
0
0
0
0
0
1
1
3
4
5
7
8
10
11
12
13
13
13
17
28
49
79
113
145
172
188
196
198
198
200
207
222
246
283
325
370
413
453
486
510
521
522
521
532
567
628
705
780
835
863
868
857
837
809
778
749
725
710
703
702
703
703
697
683
659
623
581
536
493
453
419
394
382
379
378
366
330
267
188
113
58
30
21
20
20
18
15
12
10
9
7
6
5
4
3
2
2
1
1
1
1
1
1
1
1
1
1
2
3
4
5
7
10
12
15
16
17
18
18
18
23
34
55
85
121
157
187
207
217
220
219
222
233
258
298
351
408
469
524
568
597
610
612
610
618
647
705
785
871
940
981
995
992
981
966
948
924
898
875
860
853
852
853
851
840
816
775
723
666
606
551
507
477
463
460
460
450
418
357
276
189
120
80
65
64
63
57
46
33
23
16
12
9
7
6
5
5
5
4
4
4
3
3
2
2
2
2
2
2
2
2
3
4
6
9
12
15
17
19
19
19
20
22
30
47
73
107
145
181
209
229
238
241
241
244
258
286
331
392
461
533
596
646
677
686
684
685
705
752
824
904
972
1015
1031
1031
1023
1013
997
974
945
914
888
869
860
858
858
854
841
814
769
709
640
568
505
455
423
411
411
407
385
335
260
179
110
67
50
48
48
42
32
20
11
6
4
3
3
3
3
3
2
2
1
1
1
1
1
1
1
1
1
1
1
2
4
6
9
12
15
18
21
23
23
23
25
32
48
78
121
171
218
257
281
292
296
296
298
308
331
367
420
483
552
620
678
719
739
741
739
747
778
835
908
978
1032
1066
1078
1074
1058
1029
990
945
903
869
848
839
837
837
835
825
802
766
713
650
581
512
454
411
390
386
386
374
340
280
205
133
78
44
30
27
27
26
22
16
11
7
4
2
1
0
0
0
0
0
0
0
0
0
0
0
0
0
1
2
4
7
11
16
22
29
37
44
50
52
53
53
57
72
101
143
198
254
304
340
362
373
374
374
380
395
425
472
538
616
700
780
844
879
888
883
888
926
1003
1108
1219
1308
1362
1385
1384
1369
1346
1315
1274
1232
1193
1164
1146
1139
1139
1140
1135
1120
1090
1042
976
898
813
732
666
628
615
615
604
559
475
362
246
155
100
77
73
73
67
56
42
29
17
10
6
3
1
0
0
0
0
0
0
0
0
0
0
0
0
0
0
0
1
2
4
7
9
13
15
17
19
19
19
21
29
46
72
104
138
168
189
203
208
209
209
213
224
247
283
330
385
443
498
543
572
582
581
583
605
657
735
824
904
956
981
985
977
962
942
918
892
870
856
848
848
851
853
850
840
817
781
733
678
621
566
520
490
479
479
474
450
395
313
222
141
88
64
58
58
56
50
42
34
26
19
13
8
4
2
1
0
0
0
0
0
0
0
0
0
0
0
0
0
0
1
3
5
8
12
14
16
18
18
18
18
20
26
40
65
99
139
179
213
236
246
248
248
255
276
315
367
430
499
568
629
676
703
712
710
711
734
790
875
972
1053
1108
1132
1136
1130
1118
1097
1069
1035
1000
971
952
946
948
949
944
924
886
833
770
701
632
572
524
496
486
486
481
455
397
309
211
130
75
50
44
44
43
39
33
27
21
15
12
8
5
3
1
0
0
0
0
0
0
0
0
0
0
0
0
0
1
2
4
5
7
10
12
14
16
16
16
17
22
34
55
83
117
153
187
215
235
244
245
246
254
278
326
398
486
580
667
739
786
804
805
806
826
879
964
1067
1164
1236
1274
1286
1281
1271
1256
1238
1215
1189
1162
1139
1124
1117
1116
1116
1108
1084
1036
964
876
782
694
622
575
555
553
551
528
473
385
280
182
110
72
59
58
57
51
41
30
19
12
7
3
1
0
0
0
0
0
0
0
0
0
0
0
0
0
0
0
0
1
3
5
8
11
14
16
18
19
19
19
21
28
43
69
106
148
191
229
259
276
281
281
284
298
330
382
454
535
620
698
758
793
806
805
805
823
870
942
1025
1099
1149
1172
1174
1167
1157
1139
1115
1083
1049
1017
990
975
970
970
968
955
925
874
803
723
639
561
500
464
451
450
447
426
377
302
218
143
93
71
66
66
62
53
41
30
21
15
12
10
10
10
10
9
7
6
4
3
3
3
3
3
3
2
2
3
3
4
5
7
10
13
17
20
22
23
23
24
28
43
73
118
174
229
276
310
328
334
334
336
349
377
424
488
566
647
725
790
837
860
865
862
873
913
991
1093
1195
1276
1323
1340
1338
1323
1299
1264
1220
1175
1134
1105
1089
1086
1087
1084
1072
1044
996
933
855
774
696
630
582
558
552
551
537
495
413
308
203
122
74
56
54
54
49
38
27
17
10
6
3
1
0
0
0
0
0
0
0
0
0
0
0
0
0
0
0
1
3
5
8
11
16
21
27
33
37
40
41
41
42
48
65
97
144
205
265
315
351
371
378
378
379
385
402
432
477
540
621
711
801
874
918
932
928
931
965
1048
1167
1297
1405
1474
1503
1503
1486
1459
1422
1377
1332
1294
1267
1254
1250
1251
1251
1245
1229
1199
1154
1090
1009
918
827
752
705
687
686
678
638
550
426
294
185
116
86
80
80
75
64
49
34
21
12
6
3
1
0
0
0
0
0
0
0
0
0
0
0
0
0
0
0
1
2
3
6
9
12
15
18
21
23
23
23
25
33
52
84
129
179
227
263
286
297
300
300
304
317
347
395
461
539
620
695
755
792
805
804
804
826
880
965
1064
1154
1217
1249
1256
1248
1229
1201
1162
1119
1079
1050
1033
1027
1028
1031
1029
1016
986
938
872
795
713
638
578
540
525
523
520
496
438
350
248
157
94
62
53
52
52
48
42
35
28
21
15
9
6
2
1
0
0
0
0
0
0
0
0
0
0
0
0
0
1
3
5
7
10
14
18
22
25
26
27
27
31
47
77
119
172
227
275
309
327
332
332
334
346
372
413
470
539
611
683
743
787
810
814
812
821
860
932
1022
1110
1175
1211
1224
1222
1207
1179
1139
1090
1039
995
965
951
950
954
956
949
925
886
828
759
687
615
555
510
485
479
479
467
424
349
254
163
97
61
47
45
45
43
40
37
33
29
25
22
17
13
8
5
2
1
1
1
1
1
0
0
0
0
0
1
2
3
5
7
10
12
15
17
18
19
19
20
27
43
72
110
150
189
219
238
248
251
251
252
259
276
304
347
399
460
520
577
624
653
663
662
662
679
727
803
893
973
1031
1058
1059
1042
1015
982
947
915
890
874
866
864
866
866
861
846
819
777
725
665
604
547
499
469
457
456
453
434
384
306
215
134
76
48
40
40
39
34
28
22
17
14
12
11
9
7
6
4
3
2
1
1
1
1
1
1
1
1
1
1
1
2
2
3
4
5
7
9
11
12
12
12
13
17
28
44
67
95
125
153
176
190
197
198
198
201
214
240
280
333
396
462
525
580
615
631
631
633
655
711
801
902
993
1053
1080
1081
1071
1057
1042
1026
1007
988
971
961
957
957
958
955
942
916
876
823
760
694
630
575
539
523
521
518
493
436
345
243
152
91
63
57
57
55
47
35
24
15
9
5
3
1
0
0
0
0
0
0
0
0
0
0
0
0
0
0
0
1
2
4
6
8
11
15
18
20
21
21
21
25
36
59
95
140
188
231
263
284
293
295
295
299
313
343
390
454
532
613
690
756
797
815
815
815
837
894
982
1085
1179
1242
1274
1278
1267
1246
1218
1186
1152
1122
1099
1085
1080
1079
1080
1076
1063
1033
986
924
846
765
687
621
578
559
557
554
530
469
378
273
178
115
83
75
75
72
64
52
38
26
17
10
5
3
3
3
2
2
1
0
0
0
0
0
0
0
0
0
0
1
2
4
7
10
14
17
21
25
28
29
29
30
37
56
90
140
198
253
298
330
347
351
351
355
370
404
457
529
610
694
772
832
869
881
878
882
913
978
1072
1170
1249
1297
1317
1319
1312
1296
1270
1229
1181
1132
1091
1062
1048
1045
1045
1042
1027
993
940
868
787
702
624
564
526
512
512
504
470
401
303
202
121
71
51
48
48
44
36
27
18
12
7
4
2
1
0
0
0
0
0
0
0
0
0
0
0
0
0
0
0
0
1
4
8
13
20
28
36
44
50
54
55
55
59
74
108
160
226
292
353
400
431
446
449
449
456
478
523
599
697
809
925
1023
1091
1120
1122
1118
1139
1206
1318
1451
1573
1660
1704
1718
1715
1702
1678
1642
1594
1544
1495
1456
1430
1418
1415
1415
1409
1386
1341
1266
1168
1056
940
842
773
741
735
733
705
630
510
370
242
151
106
92
91
89
79
62
44
28
17
9
4
2
1
0
0
0
0
0
0
0
0
0
0
0
0
0
0
0
1
2
4
7
12
17
23
28
33
37
37
37
39
48
69
105
151
198
243
279
302
313
316
316
319
332
360
405
468
546
628
706
771
813
828
826
826
848
908
1001
1105
1193
1250
1276
1280
1271
1251
1220
1181
1140
1102
1073
1058
1054
1057
1062
1061
1049
1021
976
913
835
754
676
610
568
551
550
545
517
451
353
244
153
96
69
63
63
62
57
51
44
37
30
22
15
9
5
2
1
1
1
1
1
0
0
0
0
0
0
0
1
1
3
5
9
13
17
22
26
28
29
